Potential (V),Current (A)
0.0481767654418945,-0.0000501870090374723
0.0526838302612305,-0.0000482699397252873
0.057835578918457,-0.0000465536577394232
0.0629863739013672,-0.0000450510997325182
0.0681371688842773,-0.0000436974951298907
0.0726442337036133,-0.0000424345635110512
0.0781173706054688,-0.0000412817462347448
0.0832681655883789,-0.0000401548168156296
0.0877752304077148,-0.0000391898065572605
0.0926046371459961,-0.0000382183352485299
0.0977554321289063,-0.0000372338981833309
0.103228569030762,-0.0000363660365110263
0.108057975769043,-0.0000355435040546581
0.112565040588379,-0.0000346367887686938
0.118038177490234,-0.0000337883684551343
0.122867584228516,-0.0000328686874127015
0.128018379211426,-0.0000319749233312905
0.132204055786133,-0.0000309840106638148
0.138642311096191,-0.0000299607199849561
0.143149375915527,-0.0000288920855382457
0.148301124572754,-0.000027655070880428
0.154095649719238,-0.0000264309928752482
0.158602714538574,-0.0000248701398959383
0.163432121276855,-0.0000232704333029687
0.168261528015137,-0.0000214699539355934
0.173412322998047,-0.0000193197338376194
0.178241729736328,-0.0000170205603353679
0.183713912963867,-0.0000143716461025178
0.18822193145752,-0.0000115284346975386
0.193050384521484,-0.00000832902151159942
0.198201179504395,-0.00000491274022351718
0.203030586242676,-0.00000123268728202675
0.208181381225586,0.00000293329412670573
0.213010787963867,0.00000702167017152533
0.218161582946777,0.000011016454664059
0.22266960144043,0.0000154917652253062
0.22782039642334,0.0000198569614440203
0.232327461242676,0.0000239954824792221
0.237478256225586,0.0000279461819445714
0.242630004882813,0.0000319875543937087
0.247137069702148,0.0000349343899870291
0.252610206604004,0.0000378877011826262
0.258082389831543,0.0000398695265175775
0.262590408325195,0.0000412425579270348
0.268062591552734,0.0000418254494434223
0.272891998291016,0.0000418966956203803
0.278042793273926,0.0000414433161495253
0.283194541931152,0.0000405948812840506
0.288022994995117,0.0000394679809687659
0.292852401733398,0.0000382439029635862
0.29768180847168,0.0000369226763723418
0.303154945373535,0.0000353747891495004
0.307662010192871,0.0000338139507221058
0.313135147094727,0.0000322207051794976
0.317963600158691,0.0000307051959680393
0.322470664978027,0.0000292479671770707
0.327300071716309,0.0000277777871815488
0.332773208618164,0.0000265148555627093
0.33824634552002,0.0000251936435233802
0.34339714050293,0.0000240472872974351
0.34854793548584,0.0000229721772484481
0.353377342224121,0.000021903557353653
0.358528137207031,0.0000209514982998371
0.363036155700684,0.0000201030634343624
0.368508338928223,0.0000192287261597812
0.37269401550293,0.0000184904056368396
0.378167152404785,0.0000177585607161745
0.382674217224121,0.0000171173742273822
0.387825012207031,0.0000164826778927818
0.392976760864258,0.0000158609182108194
0.397161483764648,0.0000153946166392416
0.392332077026367,0.0000145138037623838
0.387503623962402,0.0000138726172735915
0.381064414978027,0.000013289725757204
0.377201080322266,0.0000126874074339867
0.372371673583984,0.0000121369084808975
0.36754322052002,0.0000115604925667867
0.362070083618164,0.0000109840766526759
0.357240676879883,0.0000103817583294585
0.352089881896973,0.00000974704744294286
0.346939086914063,0.00000914472911972553
0.34243106842041,0.000008432120012003
0.336636543273926,0.00000758456189942081
0.33212947845459,0.00000669481778459158
0.326656341552734,0.00000572457065572962
0.321505546569824,0.00000461971740151057
0.316353797912598,0.00000334387095790589
0.312812805175781,0.00000189091315405676
0.307018280029297,0.000000216406078834552
0.302510261535645,-0.00000172183717950247
0.297038078308105,-0.00000400721819460159
0.292208671569824,-0.0000062739218265051
0.287057876586914,-0.00000911382267076988
0.282550811767578,-0.0000121113262139261
0.277399063110352,-0.000015336656360887
0.272570610046387,-0.0000190671562450007
0.267097473144531,-0.0000228883145609871
0.262590408325195,-0.0000267418654402718
0.257761001586914,-0.0000311912590404972
0.252610206604004,-0.0000356924720108509
0.247780799865723,-0.0000400188146159053
0.242307662963867,-0.0000439565628767014
0.237800598144531,-0.0000477000139653683
0.23297119140625,-0.0000510030513396487
0.227498054504395,-0.0000541441841050982
0.22266960144043,-0.0000564692600164562
0.218483924865723,-0.0000586518726777285
0.212367057800293,-0.0000599147897446528
0.207216262817383,-0.0000606272224104032
0.202064514160156,-0.0000605948298471048
0.19852352142334,-0.0000603487278567627
0.194016456604004,-0.0000592477153986692
0.18822193145752,-0.0000582438369747251
0.183070182800293,-0.0000569938711123541
0.177597045898438,-0.0000553941645193845
0.172446250915527,-0.000053969313739799
0.167295455932617,-0.0000524214119650424
0.16310977935791,-0.0000506792275700718
0.15699291229248,-0.0000492349499836564
0.15280818939209,-0.0000476287677884102
0.147656440734863,-0.0000462298339698464
0.142505645751953,-0.0000448503269581124
0.137032508850098,-0.0000435096735600382
0.132525444030762,-0.0000422985613113269
0.12769603729248,-0.0000411522050853819
0.122223854064941,-0.0000400188146159053
0.117715835571289,-0.0000390473287552595
0.113531112670898,-0.0000381211866624653
0.107735633850098,-0.0000372403737856075
0.102907180786133,-0.0000364113657269627
0.0977554321289063,-0.0000356406526407227
0.0926046371459961,-0.0000349217589246109
0.0871315002441406,-0.0000342287676176056
0.0823030471801758,-0.000033665302908048
0.0771512985229492,-0.0000330370821757242
0.0723228454589844,-0.00003246714186389
0.0678157806396484,-0.0000319425453199074
0.062342643737793,-0.000031482704798691
0.0575132369995117,-0.000030964583856985
0.0520401000976563,-0.0000305630383081734
0.0484991073608398,-0.0000301873951684684
0.0526838302612305,-0.0000296368962153792
0.0581569671630859,-0.0000291964825009927
0.0633077621459961,-0.0000287884613499045
0.0678157806396484,-0.0000284128182101995
0.0729665756225586,-0.0000280112726613879
0.0777950286865234,-0.0000276485807262361
0.0826244354248047,-0.0000272794277407229
0.0884199142456055,-0.0000269426382146776
0.0929269790649414,-0.0000265864364337176
0.0984001159667969,-0.0000261978420894593
0.103550910949707,-0.000025809247745201
0.108380317687988,-0.0000253688340308145
0.113531112670898,-0.0000249543372774497
0.119004249572754,-0.0000244880211539567
0.123188972473145,-0.0000240087683778256
0.12769603729248,-0.0000234194012591615
0.133491516113281,-0.0000228170829359442
0.138642311096191,-0.0000221111258724704
0.143149375915527,-0.0000213469029404223
0.148622512817383,-0.0000204531388590112
0.153773307800293,-0.0000193326850421727
0.157958984375,-0.0000181215727934614
0.162788391113281,-0.0000166578684002161
0.167939186096191,-0.0000150711130117998
0.172768592834473,-0.0000132706336444244
0.178563117980957,-0.0000111074623418972
0.183070182800293,-0.00000861399166751653
0.188543319702148,-0.00000595512119616615
0.193694114685059,-0.00000289045010504196
0.19852352142334,0.0000000795471351011656
0.203352928161621,0.00000368424662156031
0.207537651062012,0.0000074892432166962
0.212367057800293,0.0000114244758151472
0.217196464538574,0.0000155047164298594
0.222990989685059,0.0000199476344278082
0.227176666259766,0.0000242739770328626
0.233293533325195,0.0000283542030956596
0.237156867980957,0.0000323826243402436
0.242630004882813,0.0000360483390977606
0.247780799865723,0.0000392671936424449
0.253253936767578,0.0000420067954109982
0.258082389831543,0.0000437230773968622
0.26323413848877,0.0000449406652478501
0.268062591552734,0.0000456530979136005
0.273858070373535,0.0000455753615824506
0.277721405029297,0.0000447787606390193
0.282550811767578,0.0000442347227362916
0.288989067077637,0.0000429458887083456
0.292852401733398,0.0000416894181398675
0.29768180847168,0.0000402322184527293
0.304120063781738,0.0000385742023354396
0.3079833984375,0.0000369097251677886
0.313135147094727,0.0000352581992046908
0.317963600158691,0.0000336326047545299
0.323115348815918,0.0000321170809911564
0.328266143798828,0.0000306533765979111
0.333416938781738,0.0000292738695861772
0.33824634552002,0.0000279008381767198
0.34339714050293,0.0000266443967120722
0.34854793548584,0.0000255368940997869
0.353699684143066,0.0000243711256189272
0.358206748962402,0.0000233866885537282
0.363357543945313,0.0000224281538976356
0.368508338928223,0.0000215408654185012
0.373337745666504,0.0000206989061553031
0.378167152404785,0.000019934683223255
0.383317947387695,0.0000192222505575046
0.387825012207031,0.0000185227836482227
0.392654418945313,0.0000178945629158989
0.397805213928223,0.0000173634907696396
0.391688346862793,0.0000164438097272068
0.386859893798828,0.0000157572940224782
0.382351875305176,0.0000151096464833245
0.376879692077637,0.0000145202793646604
0.372371673583984,0.0000138790928758681
0.367864608764648,0.0000133156427182257
0.361747741699219,0.0000126744562294334
0.356596946716309,0.0000120527110993862
0.352411270141602,0.0000113985734060407
0.345973014831543,0.000010660252883099
0.342109680175781,0.00000992191780824214
0.336636543273926,0.00000913177791517228
0.332773208618164,0.00000818867192720063
0.327622413635254,0.00000719234049029183
0.322793006896973,0.00000604433625994716
0.317319869995117,0.00000465063112642383
0.312169075012207,0.00000323406220559264
0.306695938110352,0.00000148935396282468
0.302510261535645,-0.000000464990080217831
0.297359466552734,-0.00000269917018158594
0.293174743652344,-0.00000498841518492554
0.287379264831543,-0.00000807176365924533
0.282872200012207,-0.0000109584943857044
0.277721405029297,-0.0000143198267323896
0.272248268127441,-0.0000180632778210565
0.26741886138916,-0.0000220852234633639
0.263555526733398,-0.0000260877422988415
0.257761001586914,-0.0000305371358990669
0.252287864685059,-0.0000344619329553097
0.247137069702148,-0.0000389760825783014
0.242951393127441,-0.0000431858497904614
0.237478256225586,-0.0000468451034976169
0.232649803161621,-0.0000505367352161556
0.22782039642334,-0.0000531726982444525
0.222990989685059,-0.0000558539904886857
0.218483924865723,-0.0000575767626287416
0.212367057800293,-0.0000589303526794538
0.207537651062012,-0.0000596168683841825
0.202709197998047,-0.0000600119383307174
0.197879791259766,-0.0000595521123614162
0.193050384521484,-0.0000585352827329189
0.187899589538574,-0.0000576091406401247
0.182748794555664,-0.000056365635828115
0.177597045898438,-0.0000548501266166568
0.172446250915527,-0.0000533540442120284
0.167616844177246,-0.0000517543376190588
0.162466049194336,-0.0000501092872582376
0.157958984375,-0.0000485160562675446
0.152485847473145,-0.0000470329250674695
0.147335052490234,-0.0000456598936580122
0.141861915588379,-0.0000441832380602136
0.137676239013672,-0.0000429850770160556
0.132204055786133,-0.000041741572204046
0.127374649047852,-0.0000406211329391226
0.122867584228516,-0.0000395654496969655
0.11739444732666,-0.0000385486346203834
0.112887382507324,-0.0000376548705389723
0.107414245605469,-0.0000367934844689444
0.102584838867188,-0.0000359709665644914
0.0974340438842773,-0.0000352196802850813
0.0929269790649414,-0.0000345202133757994
0.0874538421630859,-0.0000338336976710707
0.0823030471801758,-0.00003323785495013
0.0768299102783203,-0.000032680865842849
0.0726442337036133,-0.0000320914987241849
0.0678157806396484,-0.0000316057703457773
0.0626640319824219,-0.0000311070762109011
0.0571908950805664,-0.0000306990405078977
0.0523624420166016,-0.0000302845437545329
